Cont Pot (V) at Lt Cont,Opt Pwr (mW) at Lt Mir,Opt Pwr (mW) at Rt Mir,Cont J Total (A/cm2) at Lt Cont,Cont J Total (A/cm2) at Rt Cont,Cont Built Pot (V) at Lt Cont,Cont Built Pot (V) at Rt Cont
1.0000e+00,6.7192e-11,3.3511e-11,6.3882e-03,6.3882e-03,-3.6749e-16,1.5532e+00
1.1000e+00,3.2032e-09,1.5976e-09,6.4697e-02,6.4698e-02,-3.6749e-16,1.5532e+00
1.2000e+00,1.5109e-07,7.5357e-08,7.4542e-01,7.4542e-01,-3.6749e-16,1.5532e+00
1.3000e+00,6.5613e-06,3.2724e-06,7.9996e+00,7.9996e+00,-3.6749e-16,1.5532e+00
1.4000e+00,1.7124e-04,8.5403e-05,8.3161e+01,8.3161e+01,-3.6749e-16,1.5532e+00
1.5000e+00,1.2650e-03,6.3093e-04,4.4894e+02,4.4894e+02,-3.6749e-16,1.5532e+00
1.6000e+00,3.7151e-03,1.8529e-03,1.1880e+03,1.1880e+03,-3.6749e-16,1.5532e+00
1.7000e+00,7.1705e-03,3.5763e-03,2.1839e+03,2.1839e+03,-3.6749e-16,1.5532e+00
1.8000e+00,1.1135e-02,5.5533e-03,3.2998e+03,3.2998e+03,-3.6749e-16,1.5532e+00
1.9000e+00,1.5236e-02,7.5990e-03,4.4394e+03,4.4394e+03,-3.6749e-16,1.5532e+00
2.0000e+00,1.9335e-02,9.6431e-03,5.5690e+03,5.5690e+03,-3.6749e-16,1.5532e+00
2.1000e+00,2.3475e-02,1.1708e-02,6.7038e+03,6.7039e+03,-3.6749e-16,1.5532e+00
2.2000e+00,2.7726e-02,1.3828e-02,7.8646e+03,7.8646e+03,-3.6749e-16,1.5532e+00
2.3000e+00,3.2115e-02,1.6017e-02,9.0593e+03,9.0594e+03,-3.6749e-16,1.5532e+00
2.4000e+00,3.6640e-02,1.8274e-02,1.0289e+04,1.0289e+04,-3.6749e-16,1.5532e+00
2.5000e+00,4.1293e-02,2.0595e-02,1.1550e+04,1.1550e+04,-3.6749e-16,1.5532e+00
2.6000e+00,4.6064e-02,2.2974e-02,1.2842e+04,1.2842e+04,-3.6749e-16,1.5532e+00
2.7000e+00,5.0943e-02,2.5407e-02,1.4161e+04,1.4161e+04,-3.6749e-16,1.5532e+00
2.8000e+00,5.5920e-02,2.7890e-02,1.5506e+04,1.5506e+04,-3.6749e-16,1.5532e+00
2.9000e+00,6.0989e-02,3.0418e-02,1.6874e+04,1.6874e+04,-3.6749e-16,1.5532e+00
3.0000e+00,6.6143e-02,3.2988e-02,1.8265e+04,1.8265e+04,-3.6749e-16,1.5532e+00
3.1000e+00,7.1376e-02,3.5598e-02,1.9676e+04,1.9676e+04,-3.6749e-16,1.5532e+00
3.2000e+00,7.6683e-02,3.8245e-02,2.1106e+04,2.1106e+04,-3.6749e-16,1.5532e+00
3.3000e+00,8.2059e-02,4.0926e-02,2.2555e+04,2.2555e+04,-3.6749e-16,1.5532e+00
3.4000e+00,8.7502e-02,4.3641e-02,2.4022e+04,2.4022e+04,-3.6749e-16,1.5532e+00
3.5000e+00,9.3006e-02,4.6386e-02,2.5505e+04,2.5504e+04,-3.6749e-16,1.5532e+00
3.6000e+00,9.8571e-02,4.9162e-02,2.7003e+04,2.7003e+04,-3.6749e-16,1.5532e+00
3.7000e+00,1.0419e-01,5.1965e-02,2.8517e+04,2.8517e+04,-3.6749e-16,1.5532e+00
3.8000e+00,1.0987e-01,5.4795e-02,3.0045e+04,3.0046e+04,-3.6749e-16,1.5532e+00
3.9000e+00,1.1559e-01,5.7652e-02,3.1588e+04,3.1588e+04,-3.6749e-16,1.5532e+00
4.0000e+00,1.2137e-01,6.0533e-02,3.3144e+04,3.3144e+04,-3.6749e-16,1.5532e+00
4.1000e+00,1.2720e-01,6.3438e-02,3.4713e+04,3.4713e+04,-3.6749e-16,1.5532e+00
4.2000e+00,1.3307e-01,6.6367e-02,3.6295e+04,3.6295e+04,-3.6749e-16,1.5532e+00
4.3000e+00,1.3898e-01,6.9318e-02,3.7889e+04,3.7889e+04,-3.6749e-16,1.5532e+00
4.4000e+00,1.4495e-01,7.2291e-02,3.9495e+04,3.9495e+04,-3.6749e-16,1.5532e+00
4.5000e+00,1.5095e-01,7.5285e-02,4.1112e+04,4.1113e+04,-3.6749e-16,1.5532e+00
4.6000e+00,1.5699e-01,7.8300e-02,4.2742e+04,4.2742e+04,-3.6749e-16,1.5532e+00
4.7000e+00,1.6308e-01,8.1336e-02,4.4383e+04,4.4382e+04,-3.6749e-16,1.5532e+00
4.8000e+00,1.6921e-01,8.4391e-02,4.6034e+04,4.6034e+04,-3.6749e-16,1.5532e+00
4.9000e+00,1.7537e-01,8.7466e-02,4.7697e+04,4.7697e+04,-3.6749e-16,1.5532e+00
5.0000e+00,1.8158e-01,9.0560e-02,4.9370e+04,4.9370e+04,-3.6749e-16,1.5532e+00
5.1000e+00,1.8782e-01,9.3673e-02,5.1054e+04,5.1054e+04,-3.6749e-16,1.5532e+00
5.2000e+00,1.9410e-01,9.6804e-02,5.2748e+04,5.2748e+04,-3.6749e-16,1.5532e+00
5.3000e+00,2.0041e-01,9.9954e-02,5.4453e+04,5.4453e+04,-3.6749e-16,1.5532e+00
5.4000e+00,2.0676e-01,1.0312e-01,5.6168e+04,5.6167e+04,-3.6749e-16,1.5532e+00
5.5000e+00,2.1315e-01,1.0631e-01,5.7892e+04,5.7892e+04,-3.6749e-16,1.5532e+00
5.6000e+00,2.1958e-01,1.0951e-01,5.9627e+04,5.9627e+04,-3.6749e-16,1.5532e+00
5.7000e+00,2.2603e-01,1.1273e-01,6.1372e+04,6.1372e+04,-3.6749e-16,1.5532e+00
5.8000e+00,2.3253e-01,1.1597e-01,6.3127e+04,6.3127e+04,-3.6749e-16,1.5532e+00
5.9000e+00,2.3906e-01,1.1923e-01,6.4891e+04,6.4891e+04,-3.6749e-16,1.5532e+00
6.0000e+00,2.4562e-01,1.2250e-01,6.6666e+04,6.6665e+04,-3.6749e-16,1.5532e+00
6.1000e+00,2.5222e-01,1.2579e-01,6.8450e+04,6.8450e+04,-3.6749e-16,1.5532e+00
6.2000e+00,2.5885e-01,1.2910e-01,7.0244e+04,7.0244e+04,-3.6749e-16,1.5532e+00
6.3000e+00,2.6551e-01,1.3242e-01,7.2048e+04,7.2048e+04,-3.6749e-16,1.5532e+00
6.4000e+00,2.7221e-01,1.3576e-01,7.3861e+04,7.3861e+04,-3.6749e-16,1.5532e+00
6.5000e+00,2.7895e-01,1.3912e-01,7.5684e+04,7.5684e+04,-3.6749e-16,1.5532e+00
6.6000e+00,2.8571e-01,1.4250e-01,7.7516e+04,7.7516e+04,-3.6749e-16,1.5532e+00
6.7000e+00,2.9251e-01,1.4589e-01,7.9358e+04,7.9359e+04,-3.6749e-16,1.5532e+00
6.8000e+00,2.9935e-01,1.4930e-01,8.1210e+04,8.1210e+04,-3.6749e-16,1.5532e+00
6.9000e+00,3.0622e-01,1.5272e-01,8.3072e+04,8.3072e+04,-3.6749e-16,1.5532e+00
7.0000e+00,3.1312e-01,1.5617e-01,8.4943e+04,8.4943e+04,-3.6749e-16,1.5532e+00
7.1000e+00,3.2005e-01,1.5962e-01,8.6824e+04,8.6824e+04,-3.6749e-16,1.5532e+00
7.2000e+00,3.2702e-01,1.6310e-01,8.8714e+04,8.8714e+04,-3.6749e-16,1.5532e+00
7.3000e+00,3.3402e-01,1.6659e-01,9.0614e+04,9.0614e+04,-3.6749e-16,1.5532e+00
7.4000e+00,3.4106e-01,1.7010e-01,9.2524e+04,9.2524e+04,-3.6749e-16,1.5532e+00
7.5000e+00,3.4813e-01,1.7363e-01,9.4443e+04,9.4443e+04,-3.6749e-16,1.5532e+00
7.6000e+00,3.5523e-01,1.7717e-01,9.6372e+04,9.6372e+04,-3.6749e-16,1.5532e+00
7.7000e+00,3.6237e-01,1.8073e-01,9.8311e+04,9.8311e+04,-3.6749e-16,1.5532e+00
7.8000e+00,3.6954e-01,1.8430e-01,1.0026e+05,1.0026e+05,-3.6749e-16,1.5532e+00
7.9000e+00,3.7674e-01,1.8790e-01,1.0222e+05,1.0222e+05,-3.6749e-16,1.5532e+00
8.0000e+00,3.8398e-01,1.9151e-01,1.0418e+05,1.0419e+05,-3.6749e-16,1.5532e+00
8.1000e+00,3.9125e-01,1.9513e-01,1.0616e+05,1.0616e+05,-3.6749e-16,1.5532e+00
8.2000e+00,3.9855e-01,1.9878e-01,1.0815e+05,1.0815e+05,-3.6749e-16,1.5532e+00
8.3000e+00,4.0589e-01,2.0244e-01,1.1015e+05,1.1015e+05,-3.6749e-16,1.5532e+00
8.4000e+00,4.1326e-01,2.0611e-01,1.1215e+05,1.1215e+05,-3.6749e-16,1.5532e+00
8.5000e+00,4.2067e-01,2.0981e-01,1.1417e+05,1.1417e+05,-3.6749e-16,1.5532e+00
8.6000e+00,4.2811e-01,2.1352e-01,1.1620e+05,1.1620e+05,-3.6749e-16,1.5532e+00
8.7000e+00,4.3558e-01,2.1724e-01,1.1823e+05,1.1823e+05,-3.6749e-16,1.5532e+00
8.8000e+00,4.4309e-01,2.2099e-01,1.2028e+05,1.2028e+05,-3.6749e-16,1.5532e+00
8.9000e+00,4.5063e-01,2.2475e-01,1.2234e+05,1.2234e+05,-3.6749e-16,1.5532e+00
9.0000e+00,4.5820e-01,2.2853e-01,1.2440e+05,1.2440e+05,-3.6749e-16,1.5532e+00
9.1000e+00,4.6581e-01,2.3232e-01,1.2648e+05,1.2648e+05,-3.6749e-16,1.5532e+00
9.2000e+00,4.7345e-01,2.3613e-01,1.2856e+05,1.2856e+05,-3.6749e-16,1.5532e+00
9.3000e+00,4.8113e-01,2.3996e-01,1.3066e+05,1.3066e+05,-3.6749e-16,1.5532e+00
9.4000e+00,4.8884e-01,2.4381e-01,1.3276e+05,1.3276e+05,-3.6749e-16,1.5532e+00
9.5000e+00,4.9659e-01,2.4767e-01,1.3488e+05,1.3488e+05,-3.6749e-16,1.5532e+00
9.6000e+00,5.0436e-01,2.5155e-01,1.3700e+05,1.3700e+05,-3.6749e-16,1.5532e+00
9.7000e+00,5.1217e-01,2.5544e-01,1.3914e+05,1.3914e+05,-3.6749e-16,1.5532e+00
9.8000e+00,5.2002e-01,2.5936e-01,1.4128e+05,1.4128e+05,-3.6749e-16,1.5532e+00
9.9000e+00,5.2790e-01,2.6329e-01,1.4344e+05,1.4344e+05,-3.6749e-16,1.5532e+00
1.0000e+01,5.3581e-01,2.6723e-01,1.4560e+05,1.4560e+05,-3.6749e-16,1.5532e+00
